#1
double Altitude(185,2) #Result 1|time [s] Case 1,Result 1|alt [m] Case 1
0  0
27.635144025793764  0
35.402371084313856  0
52.202367879187484  10.668000000031256
78.34219174210541  24.340553366228523
104  232.88721888639571
208  1078.199218886396
312  1923.511218886396
416  2768.8232188863963
450.34753704646107  3048.0000000000314
520  3578.7517677059923
588.3774521133195  4099.787952809487
624  4504.89897844549
728  5593.733472616779
832  6544.652795901838
936  7356.459550076291
1040  8043.316343202159
1144  8621.02084735433
1248  9104.177652548533
1352  9499.508079909558
1456  9814.109578904656
1560  10063.81170126462
1664  10261.83974262213
1728.3324488287308  10363.200000000039
1768  10363.200000000039
1872  10363.200000000039
1976  10363.200000000039
2080  10363.200000000039
2184  10363.200000000039
2189.1133267389087  10363.200000000039
2288  10363.200000000039
2392  10363.200000000039
2496  10363.200000000039
2600  10363.200000000039
2704  10363.200000000039
2808  10363.200000000039
2912  10363.200000000039
3016  10363.200000000039
3120  10363.200000000039
3224  10363.200000000039
3328  10363.200000000039
3432  10363.200000000039
3536  10363.200000000039
3640  10363.200000000039
3744  10363.200000000039
3848  10363.200000000039
3952  10363.200000000039
4056  10363.200000000039
4160  10363.200000000039
4264  10363.200000000039
4368  10363.200000000039
4472  10363.200000000039
4576  10363.200000000039
4680  10363.200000000039
4784  10363.200000000039
4888  10363.200000000039
4992  10363.200000000039
5096  10363.200000000039
5200  10363.200000000039
5304  10363.200000000039
5408  10363.200000000039
5512  10363.200000000039
5616  10363.200000000039
5720  10363.200000000039
5824  10363.200000000039
5928  10363.200000000039
6032  10363.200000000039
6068.344798233413  10363.200000000039
6136  10518.934688374764
6240  10716.102724606602
6344  10870.924793461
6429.967285281954  10972.800000000034
6448  10972.800000000034
6552  10972.800000000034
6656  10972.800000000034
6760  10972.800000000034
6864  10972.800000000034
6968  10972.800000000034
7072  10972.800000000034
7176  10972.800000000034
7280  10972.800000000034
7384  10972.800000000034
7488  10972.800000000034
7592  10972.800000000034
7696  10972.800000000034
7800  10972.800000000034
7904  10972.800000000034
8008  10972.800000000034
8112  10972.800000000034
8216  10972.800000000034
8320  10972.800000000034
8424  10972.800000000034
8528  10972.800000000034
8632  10972.800000000034
8736  10972.800000000034
8840  10972.800000000034
8944  10972.800000000034
9048  10972.800000000034
9152  10972.800000000034
9256  10972.800000000034
9360  10972.800000000034
9464  10972.800000000034
9568  10972.800000000034
9672  10972.800000000034
9776  10972.800000000034
9880  10972.800000000034
9984  10972.800000000034
10088  10972.800000000034
10192  10972.800000000034
10296  10972.800000000034
10400  10972.800000000034
10504  10972.800000000034
10608  10972.800000000034
10712  10972.800000000034
10816  10972.800000000034
10920  10972.800000000034
11024  10972.800000000034
11128  10972.800000000034
11232  10972.800000000034
11336  10972.800000000034
11440  10972.800000000034
11544  10972.800000000034
11648  10972.800000000034
11752  10972.800000000034
11856  10972.800000000034
11960  10972.800000000034
12064  10972.800000000034
12168  10972.800000000034
12272  10972.800000000034
12376  10972.800000000034
12480  10972.800000000034
12584  10972.800000000034
12688  10972.800000000034
12792  10972.800000000034
12896  10972.800000000034
13000  10972.800000000034
13104  10972.800000000034
13208  10972.800000000034
13312  10972.800000000034
13416  10972.800000000034
13520  10972.800000000034
13624  10972.800000000034
13728  10972.800000000034
13832  10972.800000000034
13936  10972.800000000034
14040  10972.800000000034
14144  10972.800000000034
14248  10972.800000000034
14352  10972.800000000034
14456  10972.800000000034
14560  10972.800000000034
14664  10972.800000000034
14768  10972.800000000034
14872  10972.800000000034
14976  10972.800000000034
15080  10972.800000000034
15184  10972.800000000034
15288  10972.800000000034
15392  10972.800000000034
15496  10972.800000000034
15600  10972.800000000034
15704  10972.800000000034
15808  10972.800000000034
15912  10972.800000000034
15936.890809619612  10972.800000000034
16016  10289.613031874998
16120  9391.469031874962
16173.678965211942  8927.897488304654
16224  8493.325031874947
16328  7595.181031874953
16432  6697.037031874928
16536  5798.893031874917
16640  4900.749031874897
16744  4002.605031874958
16848  3104.461031874947
16854.537868443327  3047.999999998378
16952  2404.3600831984213
17034.04454739238  1862.5378922191037
17056  1829.07778244506
17154.04454739267  1679.6578922186377
17160  1640.328083199812
17264  953.512083200003
17368  266.6960832000099
17408.384022289523  -1.1187901290349387e-10
17466.926768695528  -1.1187901290349387e-10